TITLE,1_3-26,
DATA TYPE,ULTRAVIOLET SPECTRUM,
ORIGIN,JASCO,
OWNER,,
DATE,24/03/2026,
TIME,15:44:03,
SPECTROMETER/DATA SYSTEM,,
LOCALE,1040,
RESOLUTION,,
DELTAX,-0.5,
XUNITS,NANOMETERS,
YUNITS,ABSORBANCE,
FIRSTX,1200,
LASTX,200,
NPOINTS,2001,
FIRSTY,0.00937,
MAXY,1.02624,
MINY,0.00937,
XYDATA,,
1200,0.00936909,0.012466406
1199.5,0.00941357,0.012525591
1199,0.00945508,0.012580823
1198.5,0.00947615,0.012608859
1198,0.00948296,0.01261792
1197.5,0.00951066,0.012654777
1197,0.00954174,0.012696132
1196.5,0.00956485,0.012726882
1196,0.00956339,0.012724939
1195.5,0.00956701,0.012729756
1195,0.00963202,0.012816258
1194.5,0.00966435,0.012859276
1194,0.00969178,0.012895774
1193.5,0.00974803,0.012970619
1193,0.00977318,0.013004084
1192.5,0.0098368,0.013088736
1192,0.00984836,0.013104117
1191.5,0.00987949,0.013145538
1191,0.0098915,0.013161519
1190.5,0.00992529,0.013206479
1190,0.00993676,0.013221741
1189.5,0.00996227,0.013255685
1189,0.00998922,0.013291544
1188.5,0.0100298,0.013345539
1188,0.0100486,0.013370554
1187.5,0.0100837,0.013417258
1187,0.010084,0.013417657
1186.5,0.0101049,0.013445466
1186,0.0101312,0.013480461
1185.5,0.0101608,0.013519846
1185,0.0101912,0.013560296
1184.5,0.010222,0.013601278
1184,0.0102317,0.013614185
1183.5,0.010253,0.013642527
1183,0.0102608,0.013652905
1182.5,0.0102949,0.013698278
1182,0.0103208,0.013732741
1181.5,0.0103419,0.013760816
1181,0.0103594,0.013784101
1180.5,0.0104208,0.013865799
1180,0.0104506,0.013905451
1179.5,0.0105087,0.013982758
1179,0.010512,0.013987149
1178.5,0.0105646,0.014057138
1178,0.0106199,0.01413072
1177.5,0.0106419,0.014159993
1177,0.0106457,0.014165049
1176.5,0.0106575,0.01418075
1176,0.0107072,0.01424688
1175.5,0.0107516,0.014305958
1175,0.0107865,0.014352396
1174.5,0.0108313,0.014412006
1174,0.0108658,0.014457911
1173.5,0.0108979,0.014500623
1173,0.0109309,0.014544533
1172.5,0.0109529,0.014573806
1172,0.0110046,0.014642597
1171.5,0.0109981,0.014633948
1171,0.0110488,0.014701409
1170.5,0.0110791,0.014741726
1170,0.0111302,0.014809719
1169.5,0.0111724,0.01486587
1169,0.0112094,0.014915102
1168.5,0.0112499,0.014968991
1168,0.0113043,0.015041375
1167.5,0.0113324,0.015078764
1167,0.0113692,0.01512773
1166.5,0.0113983,0.01516645
1166,0.0114364,0.015217145
1165.5,0.0114618,0.015250942
1165,0.0114868,0.015284207
1164.5,0.011497,0.015297779
1164,0.0115638,0.015386662
1163.5,0.0115995,0.015434164
1163,0.0116523,0.01550442
1162.5,0.0116608,0.01551573
1162,0.0116765,0.01553662
1161.5,0.011687,0.015550591
1161,0.0117301,0.015607939
1160.5,0.0117459,0.015628963
1160,0.0117746,0.015667151
1159.5,0.0117559,0.015642269
1159,0.0118054,0.015708133
1158.5,0.0117831,0.015678461
1158,0.0118153,0.015721306
1157.5,0.0118026,0.015704407
1157,0.0118294,0.015740067
1156.5,0.011816,0.015722237
1156,0.0118133,0.015718644
1155.5,0.0118178,0.015724632
1155,0.0118395,0.015753506
1154.5,0.0118243,0.015733281
1154,0.0118014,0.01570281
1153.5,0.0117887,0.015685912
1153,0.0117929,0.0156915
1152.5,0.011745,0.015627765
1152,0.0117532,0.015638676
1151.5,0.01171,0.015581195
1151,0.0117293,0.015606875
1150.5,0.0116812,0.015542874
1150,0.0116814,0.01554314
1149.5,0.0116527,0.015504952
1149,0.0116571,0.015510806
1148.5,0.0116181,0.015458913
1148,0.0115753,0.015401964
1147.5,0.011515,0.01532173
1147,0.0114717,0.015264115
1146.5,0.0114454,0.015229121
1146,0.0114281,0.015206102
1145.5,0.0113786,0.015140237
1145,0.0113576,0.015112295
1144.5,0.0113277,0.01507251
1144,0.0112903,0.015022746
1143.5,0.0112762,0.015003985
1143,0.0112309,0.014943709
1142.5,0.0112165,0.014924549
1142,0.0111913,0.014891018
1141.5,0.0111878,0.014886361
1141,0.0111453,0.014829811
1140.5,0.0111358,0.01481717
1140,0.0111385,0.014820763
1139.5,0.0111298,0.014809187
1139,0.0110898,0.014755963
1138.5,0.011066,0.014724295
1138,0.0110523,0.014706066
1137.5,0.0110177,0.014660028
1137,0.0109845,0.014615852
1136.5,0.0109731,0.014600684
1136,0.0109367,0.01455225
1135.5,0.0109324,0.014546529
1135,0.0108919,0.01449264
1134.5,0.0109265,0.014538678
1134,0.0108905,0.014490777
1133.5,0.0108807,0.014477737
1133,0.0108425,0.014426909
1132.5,0.0108353,0.014417329
1132,0.0107963,0.014365436
1131.5,0.0108144,0.014389519
1131,0.0107954,0.014364238
1130.5,0.0107879,0.014354259
1130,0.0107561,0.014311946
1129.5,0.0107884,0.014354924
1129,0.0107573,0.014313543
1128.5,0.0107541,0.014309285
1128,0.0107324,0.014280411
1127.5,0.0107353,0.01428427
1127,0.010716,0.014258589
1126.5,0.0107218,0.014266307
1126,0.0107083,0.014248344
1125.5,0.0107269,0.014273093
1125,0.0107234,0.014268436
1124.5,0.0107442,0.014296112
1124,0.0107134,0.01425513
1123.5,0.0107261,0.014272028
1123,0.0106898,0.014223728
1122.5,0.0106966,0.014232776
1122,0.0107069,0.014246481
1121.5,0.0107168,0.014259654
1121,0.0107126,0.014254065
1120.5,0.0107261,0.014272028
1120,0.0107457,0.014298108
1119.5,0.0107191,0.014262714
1119,0.0107322,0.014280145
1118.5,0.0107093,0.014249674
1118,0.0107322,0.014280145
1117.5,0.0107422,0.014293451
1117,0.0107523,0.01430689
1116.5,0.0107528,0.014307555
1116,0.0107824,0.01434694
1115.5,0.0107607,0.014318067
1115,0.0107639,0.014322324
1114.5,0.0107581,0.014314607
1114,0.0107603,0.014317534
1113.5,0.0107591,0.014315938
1113,0.0107691,0.014329244
1112.5,0.0107694,0.014329643
1112,0.0107759,0.014338292
1111.5,0.0107645,0.014323123
1111,0.0107891,0.014355855
1110.5,0.0107835,0.014348404
1110,0.0107696,0.014329909
1109.5,0.0107455,0.014297842
1109,0.0107526,0.014307289
1108.5,0.010726,0.014271895
1108,0.0107612,0.014318732
1107.5,0.0107533,0.01430822
1107,0.0107867,0.014352662
1106.5,0.0107745,0.014336429
1106,0.0107876,0.014353859
1105.5,0.0107903,0.014357452
1105,0.0108263,0.014405353
1104.5,0.0108311,0.01441174
1104,0.0108256,0.014404422
1103.5,0.0108461,0.014431699
1103,0.0108527,0.014440481
1102.5,0.0108549,0.014443408
1102,0.0108573,0.014446601
1101.5,0.0108619,0.014452722
1101,0.0108815,0.014478802
1100.5,0.010893,0.014494103
1100,0.0109083,0.014514462
1099.5,0.0109063,0.0145118
1099,0.0109054,0.014510603
1098.5,0.0109224,0.014533223
1098,0.0109426,0.014560101
1097.5,0.010919,0.014528699
1097,0.0109484,0.014567818
1096.5,0.0109574,0.014579793
1096,0.010999,0.014635146
1095.5,0.0109981,0.014633948
1095,0.011009,0.014648452
1094.5,0.0110005,0.014637142
1094,0.0110171,0.01465923
1093.5,0.0110195,0.014662423
1093,0.011033,0.014680386
1092.5,0.0110363,0.014684777
1092,0.0110342,0.014681983
1091.5,0.011042,0.014692361
1091,0.0110577,0.014713251
1090.5,0.0110726,0.014733077
1090,0.0110736,0.014734408
1089.5,0.011086,0.014750907
1089,0.0110729,0.014733476
1088.5,0.0110692,0.014728553
1088,0.011064,0.014721634
1087.5,0.0110652,0.014723231
1087,0.0110506,0.014703804
1086.5,0.0110556,0.014710457
1086,0.0110532,0.014707264
1085.5,0.0110596,0.01471578
1085,0.0110645,0.014722299
1084.5,0.0110911,0.014757693
1084,0.0110932,0.014760487
1083.5,0.0111167,0.014791756
1083,0.0111454,0.014829944
1082.5,0.0111469,0.01483194
1082,0.0111469,0.01483194
1081.5,0.011164,0.014854693
1081,0.0111645,0.014855358
1080.5,0.0111926,0.014892748
1080,0.0111852,0.014882902
1079.5,0.0111909,0.014890486
1079,0.0111885,0.014887292
1078.5,0.0112168,0.014924948
1078,0.0112353,0.014949564
1077.5,0.0112503,0.014969523
1077,0.0112306,0.01494331
1076.5,0.0112481,0.014966596
1076,0.0112369,0.014951693
1075.5,0.0112548,0.014975511
1075,0.0112699,0.014995602
1074.5,0.0112833,0.015013432
1074,0.0112861,0.015017158
1073.5,0.0113017,0.015037915
1073,0.0112993,0.015034722
1072.5,0.0113178,0.015059338
1072,0.0113121,0.015051753
1071.5,0.0113403,0.015089276
1071,0.0113687,0.015127065
1070.5,0.0113744,0.015134649
1070,0.0113824,0.015145294
1069.5,0.0114201,0.015195457
1069,0.0114171,0.015191465
1068.5,0.0114138,0.015187074
1068,0.0114204,0.015195856
1067.5,0.0114374,0.015218476
1067,0.0114235,0.015199981
1066.5,0.0114362,0.015216879
1066,0.0114421,0.01522473
1065.5,0.0114456,0.015229387
1065,0.0114433,0.015226326
1064.5,0.011435,0.015215283
1064,0.0114354,0.015215815
1063.5,0.0114516,0.01523737
1063,0.0114388,0.015220339
1062.5,0.0114464,0.015230451
1062,0.0114386,0.015220073
1061.5,0.0114432,0.015226193
1061,0.0114952,0.015295384
1060.5,0.0115057,0.015309355
1060,0.0115224,0.015331576
1059.5,0.0115103,0.015315476
1059,0.0115106,0.015315875
1058.5,0.0115131,0.015319202
1058,0.0115498,0.015368034
1057.5,0.0115564,0.015376816
1057,0.0115733,0.015399303
1056.5,0.0115515,0.015370296
1056,0.0115858,0.015415935
1055.5,0.0115754,0.015402097
1055,0.0116015,0.015436826
1054.5,0.0116147,0.015454389
1054,0.0116438,0.01549311
1053.5,0.0116183,0.01545918
1053,0.0116417,0.015490315
1052.5,0.0116237,0.015466365
1052,0.0116315,0.015476743
1051.5,0.011621,0.015462772
1051,0.0116539,0.015506548
1050.5,0.011655,0.015508012
1050,0.0116792,0.015540212
1049.5,0.0116938,0.015559639
1049,0.0117235,0.015599157
1048.5,0.011695,0.015561236
1048,0.0117391,0.015619915
1047.5,0.0117339,0.015612996
1047,0.0117797,0.015673937
1046.5,0.0117744,0.015666884
1046,0.0118202,0.015727825
1045.5,0.0118265,0.015736208
1045,0.0118423,0.015757231
1044.5,0.0118356,0.015748316
1044,0.0118542,0.015773065
1043.5,0.0118428,0.015757897
1043,0.0118902,0.015820967
1042.5,0.0118903,0.0158211
1042,0.0119093,0.015846381
1041.5,0.0118842,0.015812983
1041,0.0119228,0.015864344
1040.5,0.0119346,0.015880045
1040,0.0119817,0.015942715
1039.5,0.0119848,0.01594684
1039,0.0120013,0.015968795
1038.5,0.0119929,0.015957618
1038,0.0120223,0.015996737
1037.5,0.012012,0.015983032
1037,0.0120698,0.01605994
1036.5,0.0120635,0.016051558
1036,0.012099,0.016098794
1035.5,0.0120935,0.016091475
1035,0.0121241,0.016132191
1034.5,0.0121117,0.016115692
1034,0.0121376,0.016150154
1033.5,0.0121366,0.016148824
1033,0.0121654,0.016187145
1032.5,0.0121869,0.016215752
1032,0.0121973,0.01622959
1031.5,0.0122161,0.016254606
1031,0.012237,0.016282415
1030.5,0.0122501,0.016299846
1030,0.0122737,0.016331247
1029.5,0.0122573,0.016309426
1029,0.0122744,0.016332179
1028.5,0.0122912,0.016354533
1028,0.0123427,0.016423058
1027.5,0.0124182,0.016523517
1027,0.0124169,0.016521788
1026.5,0.0124548,0.016572217
1026,0.0124355,0.016546537
1025.5,0.012468,0.016589781
1025,0.0124513,0.01656756
1024.5,0.0124877,0.016615993
1024,0.0124597,0.016578737
1023.5,0.012479,0.016604417
1023,0.0124651,0.016585922
1022.5,0.0124724,0.016595635
1022,0.0124475,0.016562504
1021.5,0.0124876,0.01661586
1021,0.0124586,0.016577273
1020.5,0.0125053,0.016639412
1020,0.0125074,0.016642206
1019.5,0.0125855,0.016746125
1019,0.0125791,0.016737609
1018.5,0.0126157,0.016786309
1018,0.0126301,0.016805469
1017.5,0.0126449,0.016825162
1017,0.0126444,0.016824497
1016.5,0.0126482,0.016829553
1016,0.0126635,0.016849911
1015.5,0.0126833,0.016876257
1015,0.0126725,0.016861886
1014.5,0.0126783,0.016869604
1014,0.0126472,0.016828222
1013.5,0.0126824,0.016875059
1013,0.0126951,0.016891958
1012.5,0.012713,0.016915775
1012,0.012739,0.01695037
1011.5,0.0127222,0.016928016
1011,0.0127033,0.016902868
1010.5,0.0127251,0.016931875
1010,0.0127649,0.016984833
1009.5,0.0127823,0.017007985
1009,0.0128152,0.017051761
1008.5,0.0128235,0.017062805
1008,0.0128569,0.017107247
1007.5,0.0128652,0.017118291
1007,0.0129019,0.017167123
1006.5,0.0128908,0.017152354
1006,0.0129426,0.017221278
1005.5,0.012932,0.017207174
1005,0.0129731,0.017261861
1004.5,0.0129757,0.017265321
1004,0.0130189,0.017322802
1003.5,0.0129722,0.017260664
1003,0.0130387,0.017349148
1002.5,0.0130365,0.017346221
1002,0.0130907,0.017418338
1001.5,0.0131313,0.01747236
1001,0.0131823,0.01754022
1000.5,0.0132141,0.017582533
1000,0.0132373,0.017613403
999.5,0.0132574,0.017640148
999,0.0133351,0.017743534
998.5,0.0133574,0.017773206
998,0.0134557,0.017904003
997.5,0.0134438,0.017888169
997,0.0134957,0.017957227
996.5,0.013499,0.017961618
996,0.013508,0.017973593
995.5,0.0135019,0.017965477
995,0.0136084,0.018107184
994.5,0.0136146,0.018115434
994,0.0136664,0.018184358
993.5,0.0136718,0.018191544
993,0.0137114,0.018244235
992.5,0.0137146,0.018248493
992,0.0137714,0.01832407
991.5,0.013757,0.01830491
991,0.0138086,0.018373568
990.5,0.0138578,0.018439033
990,0.0139253,0.018528848
989.5,0.0139294,0.018534303
989,0.0139525,0.01856504
988.5,0.0139691,0.018587128
988,0.0139999,0.01862811
987.5,0.0140113,0.018643278
987,0.0140137,0.018646472
986.5,0.0140348,0.018674547
986,0.0140546,0.018700893
985.5,0.0140361,0.018676277
985,0.014082,0.018737351
984.5,0.014063,0.01871207
984,0.0141381,0.018811997
983.5,0.0141314,0.018803082
983,0.0141876,0.018877861
982.5,0.014166,0.018849121
982,0.0141586,0.018839274
981.5,0.0141988,0.018892764
981,0.014227,0.018930286
980.5,0.0142726,0.018990961
980,0.0143218,0.019056426
979.5,0.0143375,0.019077317
979,0.0143442,0.019086231
978.5,0.0143683,0.019118299
978,0.0144253,0.019194142
977.5,0.0144196,0.019186558
977,0.0144581,0.019237786
976.5,0.0144931,0.019284356
976,0.0145208,0.019321213
975.5,0.0145441,0.019352216
975,0.0145467,0.019355676
974.5,0.0145878,0.019410363
974,0.0145797,0.019399585
973.5,0.0146252,0.019460127
973,0.0146501,0.019493259
972.5,0.0146829,0.019536902
972,0.0146684,0.019517608
971.5,0.0147024,0.019562848
971,0.0147562,0.019634434
970.5,0.0147659,0.019647341
970,0.0148084,0.019703891
969.5,0.0148359,0.019740482
969,0.0148048,0.019699101
968.5,0.0148673,0.019782262
968,0.0148456,0.019753389
967.5,0.0148723,0.019788915
967,0.014839,0.019744607
966.5,0.0148864,0.019807677
966,0.0148987,0.019824043
965.5,0.0149177,0.019849324
965,0.0149277,0.01986263
964.5,0.0149273,0.019862098
964,0.0149188,0.019850788
963.5,0.014946,0.01988698
963,0.0149499,0.019892169
962.5,0.0149593,0.019904677
962,0.0149266,0.019861166
961.5,0.0149184,0.019850256
961,0.0149205,0.01985305
960.5,0.0149381,0.019876468
960,0.0148856,0.019806612
959.5,0.0149291,0.019864493
959,0.0149293,0.019864759
958.5,0.0149215,0.01985438
958,0.0149265,0.019861033
957.5,0.0149595,0.019904943
957,0.0149521,0.019895096
956.5,0.0149212,0.019853981
956,0.0150018,0.019961227
955.5,0.0150119,0.019974666
955,0.0150147,0.019978391
954.5,0.0150518,0.020027756
954,0.0150033,0.019963223
953.5,0.0150331,0.020002874
953,0.015071,0.020053303
952.5,0.0150562,0.020033611
952,0.0150852,0.020072198
951.5,0.0150509,0.020026559
951,0.0150822,0.020068206
950.5,0.0150667,0.020047582
950,0.0150818,0.020067674
949.5,0.0150577,0.020035607
949,0.0150741,0.020057428
948.5,0.0150444,0.02001791
948,0.0150695,0.020051308
947.5,0.0150373,0.020008463
947,0.0150721,0.020054767
946.5,0.0150068,0.01996788
946,0.0150518,0.020027756
945.5,0.0150516,0.02002749
945,0.015153,0.020162412
944.5,0.0151315,0.020133804
944,0.0152292,0.020263803
943.5,0.0151982,0.020222554
943,0.0152558,0.020299196
942.5,0.0152174,0.020248102
942,0.0152667,0.0203137
941.5,0.0151809,0.020199535
941,0.0152511,0.020292942
940.5,0.0152606,0.020305583
940,0.0152655,0.020312103
939.5,0.0152353,0.020271919
939,0.0152599,0.020304652
938.5,0.01519,0.020211643
938,0.0152272,0.020261141
937.5,0.0151943,0.020217365
937,0.0152313,0.020266597
936.5,0.0152225,0.020254888
936,0.0152673,0.020314498
935.5,0.0152482,0.020289084
935,0.0152946,0.020350823
934.5,0.0153091,0.020370117
934,0.0153447,0.020417486
933.5,0.0153487,0.020422808
933,0.0153839,0.020469645
932.5,0.0154056,0.020498518
932,0.0154418,0.020546686
931.5,0.0154387,0.020542561
931,0.0154726,0.020587668
930.5,0.0154471,0.020553738
930,0.0155015,0.020626122
929.5,0.0155356,0.020671495
929,0.0155054,0.020631311
928.5,0.0155051,0.020630912
928,0.0155679,0.020714473
927.5,0.0156053,0.020764237
927,0.0156419,0.020812937
926.5,0.0156823,0.020866692
926,0.015701,0.020891574
925.5,0.0157288,0.020928565
925,0.0157821,0.020999485
924.5,0.015747,0.020952781
924,0.0157681,0.020980857
923.5,0.0157207,0.020917787
923,0.0157575,0.020966753
922.5,0.0157651,0.020976865
922,0.0158242,0.021055503
921.5,0.0158286,0.021061357
921,0.0158376,0.021073333
920.5,0.015858,0.021100477
920,0.01586,0.021103138
919.5,0.0159603,0.021236596
919,0.0159407,0.021210516
918.5,0.0159493,0.02122196
918,0.016019,0.021314702
917.5,0.016013,0.021306718
917,0.0160304,0.02132987
916.5,0.0160659,0.021377106
916,0.0160449,0.021349164
915.5,0.0160641,0.021374711
915,0.0160365,0.021337987
914.5,0.0161337,0.02146732
914,0.016078,0.021393206
913.5,0.0161255,0.021456409
913,0.0161194,0.021448293
912.5,0.0160399,0.021342511
912,0.0160084,0.021300597
911.5,0.0159818,0.021265204
911,0.0159738,0.021254559
910.5,0.01604,0.021342644
910,0.0160583,0.021366994
909.5,0.0160692,0.021381497
909,0.0160429,0.021346503
908.5,0.0161577,0.021499254
908,0.0161597,0.021501915
907.5,0.0162284,0.021593327
907,0.0162402,0.021609028
906.5,0.0163063,0.02169698
906,0.0163302,0.021728781
905.5,0.0163322,0.021731442
905,0.0163832,0.021799302
904.5,0.0164237,0.021853191
904,0.0164695,0.021914132
903.5,0.0163979,0.021818862
903,0.0164581,0.021898963
902.5,0.0164977,0.021951654
902,0.0165449,0.022014458
901.5,0.0166255,0.022121704
901,0.016606,0.022095757
900.5,0.016573,0.022051848
900,0.0166774,0.022190761
899.5,0.0166949,0.022214046
899,0.0167385,0.02227206
898.5,0.0167118,0.022236533
898,0.016831,0.02239514
897.5,0.0167719,0.022316502
897,0.0168528,0.022424146
896.5,0.016893,0.022477636
896,0.0168734,0.022451557
895.5,0.0169557,0.022561064
895,0.0170171,0.022642762
894.5,0.0169564,0.022561995
894,0.017043,0.022677224
893.5,0.0170867,0.022735371
893,0.0171502,0.022819864
892.5,0.0170853,0.022733508
892,0.0172138,0.022904489
891.5,0.0171432,0.022810549
891,0.0172093,0.022898501
890.5,0.0171491,0.0228184
890,0.0171791,0.022858318
889.5,0.0171135,0.022771031
889,0.0171626,0.022836363
888.5,0.0171236,0.02278447
888,0.017205,0.02289278
887.5,0.0171676,0.022843016
887,0.0172996,0.023018654
886.5,0.0172091,0.022898235
886,0.0172609,0.02296716
885.5,0.017111,0.022767704
885,0.0172714,0.022981131
884.5,0.0171975,0.0228828
884,0.0172718,0.022981663
883.5,0.0172604,0.022966494
883,0.0172749,0.022985788
882.5,0.017261,0.022967293
882,0.0172656,0.022973414
881.5,0.0172288,0.022924448
881,0.0172623,0.022969023
880.5,0.0173455,0.023079728
880,0.0175768,0.023387493
879.5,0.0174275,0.023188836
879,0.0174912,0.023273594
878.5,0.0174553,0.023225826
878,0.0175026,0.023288763
877.5,0.0175285,0.023323225
877,0.0176239,0.023450163
876.5,0.0175663,0.023373522
876,0.0175551,0.023358619
875.5,0.0176296,0.023457748
875,0.0176536,0.023489682
874.5,0.0177157,0.023572312
874,0.0177935,0.023675831
873.5,0.0178538,0.023756066
873,0.0178969,0.023813414
872.5,0.0178677,0.023774561
872,0.0178156,0.023705237
871.5,0.0179098,0.023830579
871,0.0178626,0.023767775
870.5,0.0179081,0.023828317
870,0.0179224,0.023847344
869.5,0.017981,0.023925317
869,0.0179492,0.023883004
868.5,0.0180588,0.024028837
868,0.0179563,0.023892451
867.5,0.0179687,0.02390895
867,0.0181844,0.024195958
866.5,0.0182173,0.024239735
866,0.0182492,0.024282181
865.5,0.0183693,0.024441984
865,0.0184742,0.024581563
864.5,0.0184302,0.024523017
864,0.0183602,0.024429876
863.5,0.0184772,0.024585555
863,0.0183822,0.024459149
862.5,0.0184725,0.024579301
862,0.0183977,0.024479773
861.5,0.0183922,0.024472455
861,0.0183014,0.024351637
860.5,0.018441,0.024537388
860,0.0183132,0.024367338
859.5,0.0183775,0.024452895
859,0.0184616,0.024564798
858.5,0.0185502,0.024682688
858,0.0185054,0.024623077
857.5,0.018547,0.02467843
857,0.0186101,0.02476239
856.5,0.0186785,0.024853402
856,0.0187192,0.024907557
855.5,0.0188345,0.025060974
855,0.0187417,0.024937496
854.5,0.018836,0.02506297
854,0.0187275,0.024918601
853.5,0.018908,0.025158773
853,0.0188352,0.025061906
852.5,0.0187807,0.024989389
852,0.0188579,0.02509211
851.5,0.0187925,0.02500509
851,0.018606,0.024756935
850.5,0.0187522,0.024951467
850,0.0200494,0.026677507
849.5,0.0201673,0.026834383
849,0.0201533,0.026815755
848.5,0.0201467,0.026806973
848,0.0201727,0.026841568
847.5,0.0202411,0.02693258
847,0.0203126,0.027027717
846.5,0.0203745,0.027110081
846,0.0204085,0.027155321
845.5,0.0204751,0.027243938
845,0.0204939,0.027268953
844.5,0.0205012,0.027278667
844,0.0205064,0.027285586
843.5,0.0205928,0.027400548
843,0.0205666,0.027365687
842.5,0.0206354,0.027457232
842,0.0206901,0.027530015
841.5,0.020697,0.027539196
841,0.0207102,0.02755676
840.5,0.0207363,0.027591488
840,0.0207688,0.027634732
839.5,0.0207592,0.027621958
839,0.0207965,0.027671589
838.5,0.0208578,0.027753154
838,0.0208435,0.027734127
837.5,0.0208469,0.027738651
837,0.0208851,0.02778948
836.5,0.0209187,0.027834187
836,0.0209414,0.027864392
835.5,0.0209898,0.027928792
835,0.0210394,0.027994789
834.5,0.0210687,0.028033776
834,0.0211357,0.028122925
833.5,0.0211497,0.028141553
833,0.021148,0.028139291
832.5,0.0211767,0.028177479
832,0.0212037,0.028213405
831.5,0.0212002,0.028208748
831,0.0212188,0.028233497
830.5,0.021209,0.028220457
830,0.0212557,0.028282596
829.5,0.0212561,0.028283128
829,0.021285,0.028321582
828.5,0.0213462,0.028403014
828,0.0214004,0.028475132
827.5,0.0213892,0.028460229
827,0.0214316,0.028516646
826.5,0.0214948,0.02860074
826,0.02151,0.028620964
825.5,0.0215913,0.028729141
825,0.0216502,0.028807513
824.5,0.0216578,0.028817626
824,0.0217048,0.028880163
823.5,0.0217245,0.028906376
823,0.0217619,0.02895614
822.5,0.0217614,0.028955475
822,0.0218363,0.029055136
821.5,0.0218917,0.02912885
821,0.0219645,0.029225717
820.5,0.0219943,0.029265369
820,0.0220744,0.029371949
819.5,0.0220783,0.029377138
819,0.0221526,0.029476001
818.5,0.0221575,0.029482521
818,0.0221645,0.029491835
817.5,0.0221635,0.029490504
817,0.0222186,0.02956382
816.5,0.0222989,0.029670666
816,0.0223331,0.029716172
815.5,0.0223643,0.029757686
815,0.0224082,0.029816099
814.5,0.0224309,0.029846304
814,0.0224946,0.029931062
813.5,0.0225364,0.029986681
813,0.0225404,0.029992003
812.5,0.0225844,0.030050549
812,0.0226344,0.030117079
811.5,0.0226823,0.030180814
811,0.0227252,0.030237896
810.5,0.0227072,0.030213945
810,0.0227474,0.030267435
809.5,0.0227379,0.030254794
809,0.0227825,0.030314139
808.5,0.0228468,0.030399696
808,0.0229259,0.030504945
807.5,0.022976,0.030571608
807,0.0230398,0.030656499
806.5,0.023103,0.030740592
806,0.0231321,0.030779313
805.5,0.0231662,0.030824686
805,0.0231737,0.030834665
804.5,0.0232259,0.030904122
804,0.0232299,0.030909444
803.5,0.0233253,0.031036382
803,0.0233561,0.031077364
802.5,0.0234368,0.031184743
802,0.0234921,0.031258324
801.5,0.0235555,0.031342684
801,0.0236024,0.031405088
800.5,0.0236326,0.031445272
800,0.0236748,0.031501423
799.5,0.0237126,0.031551719
799,0.0237452,0.031595097
798.5,0.0237965,0.031663356
798,0.0238179,0.03169183
797.5,0.0238708,0.031762218
797,0.023914,0.0318197
796.5,0.0239659,0.031888757
796,0.0240023,0.031937191
795.5,0.0240883,0.032051622
795,0.0241168,0.032089543
794.5,0.0241842,0.032179225
794,0.0242348,0.032246553
793.5,0.0243499,0.032399704
793,0.0243986,0.032464503
792.5,0.024459,0.032544871
792,0.0244535,0.032537553
791.5,0.024529,0.032638012
791,0.0245355,0.032646661
790.5,0.0245869,0.032715053
790,0.0246305,0.032773067
789.5,0.0246941,0.032857692
789,0.0247717,0.032960946
788.5,0.0248384,0.033049696
788,0.024896,0.033126338
787.5,0.0249266,0.033167054
787,0.0249986,0.033262856
786.5,0.0250649,0.033351075
786,0.0251252,0.033431309
785.5,0.0251773,0.033500633
785,0.0252131,0.033548268
784.5,0.0252558,0.033605084
784,0.0253264,0.033699023
783.5,0.0253954,0.033790834
783,0.0254526,0.033866944
782.5,0.0255115,0.033945315
782,0.0255797,0.034036062
781.5,0.0256489,0.034128138
781,0.025713,0.034213429
780.5,0.0257507,0.034263592
780,0.0258083,0.034340234
779.5,0.0258635,0.034413683
779,0.0259281,0.034499639
778.5,0.0259614,0.034543947
778,0.0260499,0.034661704
777.5,0.0260412,0.034650128
777,0.0260926,0.034718521
776.5,0.0261568,0.034803944
776,0.0262343,0.034907065
775.5,0.0262814,0.034969736
775,0.0263506,0.035061813
774.5,0.026355,0.035067667
774,0.0264198,0.035153889
773.5,0.0264636,0.035212169
773,0.0265228,0.03529094
772.5,0.02657,0.035353744
772,0.0266327,0.035437172
771.5,0.0266748,0.035493189
771,0.0266988,0.035525124
770.5,0.0267337,0.035571561
770,0.0267901,0.035646606
769.5,0.0268417,0.035715265
769,0.0269213,0.03582118
768.5,0.0269701,0.035886112
768,0.0270184,0.03595038
767.5,0.0270742,0.036024627
767,0.0271388,0.036110583
766.5,0.0272158,0.036213038
766,0.0272628,0.036275576
765.5,0.0273177,0.036348625
765,0.0273884,0.036442698
764.5,0.0274396,0.036510824
764,0.0274967,0.0365868
763.5,0.027551,0.036659051
763,0.0276193,0.03674993
762.5,0.0277066,0.036866091
762,0.027778,0.036961095
761.5,0.0278418,0.037045986
761,0.0279016,0.037125556
760.5,0.0279544,0.037195811
760,0.0280197,0.037282698
759.5,0.0280814,0.037364796
759,0.028159,0.037468049
758.5,0.0282351,0.037569307
758,0.0282943,0.037648078
757.5,0.0284001,0.037788854
757,0.0284787,0.037893438
756.5,0.0285452,0.037981923
756,0.028613,0.038072137
755.5,0.028699,0.038186567
755,0.0287927,0.038311243
754.5,0.0288617,0.038403054
754,0.028924,0.03848595
753.5,0.0290415,0.038642294
753,0.029137,0.038769365
752.5,0.0292168,0.038875546
752,0.0293037,0.038991174
751.5,0.0293741,0.039084848
751,0.029451,0.03918717
750.5,0.0295087,0.039263945
750,0.0295966,0.039380904
749.5,0.0296888,0.039503584
749,0.0297495,0.039584351
748.5,0.0298153,0.039671903
748,0.0298926,0.039774758
747.5,0.0299752,0.039884665
747,0.0300532,0.03998845
746.5,0.0301192,0.040076269
746,0.0301791,0.040155972
745.5,0.0302776,0.040287035
745,0.0303724,0.040413174
744.5,0.0304378,0.040500195
744,0.030514,0.040601586
743.5,0.0306178,0.040739701
743,0.0306855,0.040829782
742.5,0.0307844,0.040961377
742,0.0309012,0.04111679
741.5,0.0309672,0.041204609
741,0.031029,0.041286839
740.5,0.0311235,0.04141258
740,0.031429,0.041819075
739.5,0.0314825,0.041890261
739,0.0315499,0.041979943
738.5,0.0316067,0.04205552
738,0.0316836,0.042157842
737.5,0.0317959,0.042307268
737,0.0318771,0.042415311
736.5,0.0319706,0.042539721
736,0.0320537,0.042650293
735.5,0.0321398,0.042764857
735,0.0322284,0.042882747
734.5,0.032347,0.043040555
734,0.0324268,0.043146736
733.5,0.0325221,0.043273541
733,0.0326287,0.043415382
732.5,0.0326961,0.043505064
732,0.0327665,0.043598737
731.5,0.0328585,0.043721151
731,0.0329498,0.043842634
730.5,0.0330554,0.043983144
730,0.033141,0.044097043
729.5,0.0332391,0.044227573
729,0.0333307,0.044349455
728.5,0.0334243,0.044473998
728,0.0335065,0.044583373
727.5,0.0336101,0.044721222
727,0.0336863,0.044822613
726.5,0.0337789,0.044945825
726,0.0338688,0.045065445
725.5,0.0339863,0.045221789
725,0.0340936,0.045364561
724.5,0.0342139,0.045524631
724,0.0343372,0.045688693
723.5,0.0344572,0.045848363
723,0.0345692,0.045997389
722.5,0.0346886,0.046156262
722,0.0347965,0.046299832
721.5,0.0348898,0.046423976
721,0.034999,0.046569276
720.5,0.0351213,0.046732007
720,0.035252,0.046905915
719.5,0.0353788,0.047074634
719,0.0354627,0.04718627
718.5,0.0355728,0.047332768
718,0.0356914,0.047490576
717.5,0.0358176,0.047658496
717,0.0359256,0.0478022
716.5,0.036065,0.047987684
716,0.0362018,0.048169709
715.5,0.0363124,0.048316872
715,0.0364082,0.048444342
714.5,0.0365312,0.048608005
714,0.0366568,0.048775127
713.5,0.0368024,0.04896886
713,0.0369414,0.049153812
712.5,0.0370777,0.049335171
712,0.0372035,0.049502559
711.5,0.0373393,0.049683253
711,0.0374738,0.049862218
710.5,0.0376336,0.050074846
710,0.0377474,0.050226267
709.5,0.0378521,0.050365579
709,0.0380077,0.050572619
708.5,0.0381112,0.050710335
708,0.0382532,0.050899278
707.5,0.038397,0.051090617
707,0.038552,0.051296858
706.5,0.0386862,0.051475423
706,0.0388321,0.051669556
705.5,0.0389814,0.051868213
705,0.0391402,0.052079511
704.5,0.0392854,0.052272712
704,0.0394324,0.052468309
703.5,0.0395785,0.052662708
703,0.0397404,0.05287813
702.5,0.039871,0.053051905
702,0.0400191,0.053248965
701.5,0.0401577,0.053433385
701,0.0403322,0.053665572
700.5,0.040479,0.053860903
700,0.0406368,0.05407087
699.5,0.0407877,0.054271656
699,0.0409677,0.054511162
698.5,0.041115,0.054707157
698,0.041281,0.054928035
697.5,0.041436,0.055134276
697,0.0415855,0.055333199
696.5,0.0417464,0.055547291
696,0.0419196,0.055777749
695.5,0.0420677,0.055974809
695,0.0422302,0.05619103
694.5,0.0423758,0.056384764
694,0.0425524,0.056619746
693.5,0.0427357,0.056863643
693,0.0429017,0.05708452
692.5,0.0430754,0.057315644
692,0.0432306,0.057522151
691.5,0.0434076,0.057757665
691,0.0435732,0.057978011
690.5,0.0437579,0.05822377
690,0.0439344,0.058458619
689.5,0.0441254,0.058712762
689,0.0443108,0.058959453
688.5,0.0444972,0.059207475
688,0.0446764,0.059445916
687.5,0.0448698,0.059703252
687,0.0450718,0.059972031
686.5,0.0452974,0.060272212
686,0.0455262,0.060576651
685.5,0.0457588,0.060886146
685,0.0459739,0.061172355
684.5,0.0462286,0.061511256
684,0.0464523,0.061808909
683.5,0.0466937,0.062130113
683,0.0469227,0.062434818
682.5,0.0471725,0.062767199
682,0.0474135,0.063087871
681.5,0.0476633,0.063420252
681,0.0478926,0.063725356
680.5,0.048131,0.064042568
680,0.048362,0.064349934
679.5,0.0486249,0.064699746
679,0.0488631,0.065016692
678.5,0.049099,0.065330578
678,0.0493106,0.065612131
677.5,0.0495574,0.06594052
677,0.0497732,0.066227661
676.5,0.0500205,0.066556716
676,0.0502441,0.066854235
675.5,0.0504828,0.067171847
675,0.0507281,0.06749824
674.5,0.0509714,0.067821973
674,0.0512249,0.068159277
673.5,0.051474,0.068490726
673,0.0517218,0.068820446
672.5,0.0519903,0.069177709
672,0.0522482,0.069520868
671.5,0.0525002,0.069856177
671,0.0527567,0.070197473
670.5,0.0530196,0.070547284
670,0.0532899,0.070906943
669.5,0.0535797,0.071292547
669,0.0538645,0.071671499
668.5,0.0541467,0.072046991
668,0.0544457,0.072444837
667.5,0.0547696,0.072875815
667,0.0550736,0.073280314
666.5,0.0553633,0.073665785
666,0.0556611,0.074062035
665.5,0.0559639,0.074464937
665,0.056282,0.074888197
664.5,0.0566009,0.075312522
664,0.0569135,0.075728464
663.5,0.0572234,0.076140814
663,0.0575529,0.076579243
662.5,0.0578908,0.077028848
662,0.0582396,0.077492958
661.5,0.0585632,0.077923536
661,0.0589029,0.078375537
660.5,0.0592364,0.078819289
660,0.0595985,0.079301095
659.5,0.059941,0.079756822
659,0.060276,0.080202569
658.5,0.0606157,0.08065457
658,0.0609611,0.081114155
657.5,0.0613089,0.081576934
657,0.0616852,0.082077635
656.5,0.0620424,0.082552921
656,0.0624199,0.083055218
655.5,0.062814,0.083579603
655,0.0632199,0.084119689
654.5,0.0636168,0.0846478
654,0.0640131,0.085175112
653.5,0.064411,0.085704553
653,0.0648202,0.08624903
652.5,0.0652231,0.086785125
652,0.0656276,0.087323348
651.5,0.0660298,0.087858511
651,0.0664468,0.088413366
650.5,0.0668687,0.088974741
650,0.0672925,0.089538645
649.5,0.0677019,0.090083388
649,0.0681419,0.090668847
648.5,0.0685635,0.091229823
648,0.0690235,0.091841894
647.5,0.0694778,0.092446381
647,0.0699356,0.093055524
646.5,0.0703755,0.09364085
646,0.0708428,0.094262634
645.5,0.0713115,0.094886281
645,0.0717961,0.095531085
644.5,0.0722616,0.096150474
644,0.0727416,0.096789156
643.5,0.0732471,0.097461769
643,0.0737459,0.098125467
642.5,0.0742516,0.098798345
642,0.0747774,0.099497969
641.5,0.0753046,0.100199455
641,0.0758339,0.100903736
640.5,0.0763443,0.101582868
640,0.0768765,0.102291008
639.5,0.0773996,0.102987039
639,0.0779143,0.103671893
638.5,0.0784557,0.104392274
638,0.0789984,0.105114384
637.5,0.079534,0.105827047
637,0.080117,0.106602781
636.5,0.0806838,0.107356958
636,0.0812789,0.108148792
635.5,0.0818598,0.108921731
635,0.0824469,0.109702919
634.5,0.0830496,0.110504865
634,0.0836538,0.111308807
633.5,0.0842652,0.112122329
633,0.0848864,0.112948891
632.5,0.0855321,0.113808052
632,0.0861664,0.114652044
631.5,0.0868036,0.115499896
631,0.0874518,0.116362383
630.5,0.0881284,0.11726266
630,0.0887965,0.118151626
629.5,0.0894864,0.119069599
629,0.0901746,0.11998531
628.5,0.0908822,0.120926835
628,0.0915973,0.121878339
627.5,0.0923104,0.122827182
627,0.0930401,0.123798112
626.5,0.0937905,0.124796586
626,0.0945101,0.125754078
625.5,0.0952765,0.126773841
625,0.0960202,0.1277634
624.5,0.0968313,0.128842641
624,0.0976099,0.129878637
623.5,0.0984184,0.130954418
623,0.0992381,0.132045102
622.5,0.100057,0.133134721
622,0.10088,0.134229795
621.5,0.101739,0.135372771
621,0.102572,0.136481152
620.5,0.103446,0.137644086
620,0.104491,0.139034551
619.5,0.10537,0.140204139
619,0.106257,0.141384371
618.5,0.107165,0.142592546
618,0.108079,0.143808704
617.5,0.10902,0.145060788
617,0.109981,0.146339484
616.5,0.110939,0.147614188
616,0.11191,0.148906189
615.5,0.11289,0.150210166
615,0.113904,0.151559384
614.5,0.114908,0.152895295
614,0.115939,0.154267132
613.5,0.116987,0.155661589
613,0.118064,0.157094633
612.5,0.119134,0.158518363
612,0.120237,0.159986002
611.5,0.121336,0.161448319
611,0.122465,0.162950554
610.5,0.123619,0.164486053
610,0.124783,0.166034859
609.5,0.125951,0.167588986
609,0.127153,0.169188354
608.5,0.128354,0.170786391
608,0.129592,0.17243366
607.5,0.130823,0.174071615
607,0.132088,0.17575481
606.5,0.133359,0.177445988
606,0.134663,0.179181076
605.5,0.135972,0.180922817
605,0.137297,0.182685847
604.5,0.138629,0.184458191
604,0.139991,0.186270453
603.5,0.141375,0.188111988
603,0.142781,0.189982795
602.5,0.144196,0.191865579
602,0.145657,0.193809569
601.5,0.147107,0.195738923
601,0.14857,0.197685574
600.5,0.150065,0.199674804
600,0.151613,0.201734556
599.5,0.153145,0.203773018
599,0.154704,0.205847405
598.5,0.15629,0.207957719
598,0.157908,0.210110612
597.5,0.159534,0.212274149
597,0.161193,0.214481596
596.5,0.162886,0.216734283
596,0.164587,0.218997614
595.5,0.16631,0.221290219
595,0.168071,0.223633386
594.5,0.169838,0.225984536
594,0.17164,0.228382257
593.5,0.173456,0.230798606
593,0.175287,0.233234914
592.5,0.177154,0.235719123
592,0.17907,0.238268531
591.5,0.181015,0.240856527
591,0.182977,0.243467142
590.5,0.184963,0.246109691
590,0.186971,0.248781513
589.5,0.189025,0.251514543
589,0.191114,0.254294143
588.5,0.193226,0.257104346
588,0.195353,0.259934508
587.5,0.197535,0.262837853
587,0.199743,0.265775793
586.5,0.201989,0.268764296
586,0.204256,0.27178074
585.5,0.20657,0.274859723
585,0.208923,0.277990598
584.5,0.211305,0.281160061
584,0.213703,0.284350812
583.5,0.216155,0.287613416
583,0.218634,0.290911946
582.5,0.221155,0.29426636
582,0.223728,0.297689965
581.5,0.226349,0.301177438
581,0.228977,0.304674225
580.5,0.231648,0.308228228
580,0.234373,0.311854082
579.5,0.237131,0.315523846
579,0.239917,0.319230866
578.5,0.242753,0.323004416
578,0.245635,0.326839173
577.5,0.248577,0.330753765
577,0.25157,0.334736217
576.5,0.254588,0.338751934
576,0.257648,0.342823536
575.5,0.260747,0.346947031
575,0.263898,0.351139716
574.5,0.2671,0.355400261
574,0.270352,0.359727336
573.5,0.273651,0.364116948
573,0.276983,0.36855047
572.5,0.280393,0.373087778
572,0.283836,0.377668995
571.5,0.287334,0.382323394
571,0.290853,0.387005736
570.5,0.294438,0.391775897
570,0.298082,0.396624562
569.5,0.301768,0.401529113
569,0.305514,0.406513498
568.5,0.309298,0.411548446
568,0.313122,0.416636618
567.5,0.316995,0.421789988
567,0.320921,0.427013879
566.5,0.324915,0.432328251
566,0.328941,0.437685201
565.5,0.333018,0.443110012
565,0.337173,0.448638608
564.5,0.341355,0.45420313
564,0.345586,0.459832851
563.5,0.349871,0.465534424
563,0.354201,0.471295874
562.5,0.358591,0.477137158
562,0.363032,0.483046303
561.5,0.367519,0.489016655
561,0.372062,0.49506152
560.5,0.376652,0.501168922
560,0.381305,0.507360152
559.5,0.386005,0.513613919
559,0.390746,0.51992224
558.5,0.395536,0.526295761
558,0.400381,0.532742463
557.5,0.405267,0.53924372
557,0.410213,0.545824812
556.5,0.415186,0.55244183
556,0.420224,0.559145336
555.5,0.425277,0.565868801
555,0.430401,0.572686738
554.5,0.435557,0.579547254
554,0.44076,0.586470307
553.5,0.44601,0.593455898
553,0.451286,0.600476085
552.5,0.45659,0.607533528
552,0.4619,0.614598954
551.5,0.467253,0.621721596
551,0.472627,0.62887218
550.5,0.478037,0.636070665
550,0.483482,0.643315721
549.5,0.488961,0.650606017
549,0.494436,0.65789099
548.5,0.499949,0.665226526
548,0.505485,0.672592666
547.5,0.51103,0.67997078
547,0.516618,0.68740611
546.5,0.52219,0.694820151
546,0.52776,0.70223153
545.5,0.533378,0.709706778
545,0.539002,0.717190009
544.5,0.544643,0.724695861
544,0.550275,0.732189737
543.5,0.555911,0.739688935
543,0.561546,0.747186803
542.5,0.567165,0.754663381
542,0.5728,0.762161249
541.5,0.578405,0.769619199
541,0.583989,0.777049207
540.5,0.589563,0.784465908
540,0.595107,0.791842692
539.5,0.600642,0.799207501
539,0.606135,0.806516425
538.5,0.611593,0.813778779
538,0.616984,0.820951983
537.5,0.62235,0.828091922
537,0.62767,0.835170655
536.5,0.63294,0.842182857
536,0.638178,0.849152481
535.5,0.643339,0.85601965
535,0.64845,0.862820289
534.5,0.653464,0.869491861
534,0.658397,0.876055656
533.5,0.663236,0.882494375
533,0.668004,0.888838622
532.5,0.672671,0.89504848
532,0.67724,0.90112794
531.5,0.68173,0.907102284
531,0.686122,0.91294623
530.5,0.690416,0.918659778
530,0.694597,0.924222969
529.5,0.698638,0.929599879
529,0.702554,0.934810464
528.5,0.706338,0.939845412
528,0.710002,0.944720689
527.5,0.713549,0.949440288
527,0.71696,0.953978926
526.5,0.720239,0.958341927
526,0.723354,0.962486711
525.5,0.726323,0.966437229
525,0.729137,0.970181506
524.5,0.7318,0.973724864
524,0.734313,0.977068633
523.5,0.73664,0.980164913
523,0.738824,0.983070919
522.5,0.740822,0.985729435
522,0.742678,0.988199008
521.5,0.744347,0.990419761
521,0.745834,0.992398346
520.5,0.747159,0.994161376
520,0.748318,0.995703529
519.5,0.749283,0.996987547
519,0.750077,0.998044035
518.5,0.750705,0.998879644
518,0.751156,0.99947974
517.5,0.751428,0.99984166
517,0.751547,1
516.5,0.75151,0.999950768
516,0.751294,0.999663361
515.5,0.750897,0.999135117
515,0.750325,0.998374021
514.5,0.749605,0.997415997
514,0.748726,0.996246409
513.5,0.747694,0.994873241
513,0.746516,0.993305808
512.5,0.745203,0.991558745
512,0.743728,0.989596126
511.5,0.742121,0.98745787
511,0.740382,0.985143976
510.5,0.738519,0.982665089
510,0.736967,0.980600016
509.5,0.734851,0.97778449
509,0.73262,0.974815946
508.5,0.730293,0.971719666
508,0.727837,0.96845174
507.5,0.725291,0.965064061
507,0.722641,0.961538001
506.5,0.719929,0.957929444
506,0.71711,0.954178514
505.5,0.714204,0.950311823
505,0.711239,0.946366628
504.5,0.708213,0.942340266
504,0.705159,0.938276648
503.5,0.70204,0.934126542
503,0.698845,0.929875311
502.5,0.69562,0.925584162
502,0.692336,0.921214508
501.5,0.689016,0.916796953
501,0.685673,0.912348795
500.5,0.682323,0.907891323
500,0.678916,0.903358007
499.5,0.675539,0.898864609
499,0.672142,0.894344599
498.5,0.668744,0.889823258
498,0.665314,0.885259338
497.5,0.66188,0.880690097
497,0.658483,0.876170087
496.5,0.655083,0.871646085
496,0.651705,0.867151356
495.5,0.648311,0.862635338
495,0.644964,0.858181857
494.5,0.641646,0.853766963
494,0.638349,0.849380012
493.5,0.635083,0.845034309
493,0.631825,0.840699251
492.5,0.628586,0.836389474
492,0.625385,0.832130259
491.5,0.622222,0.827921607
491,0.619085,0.82374755
490.5,0.615987,0.819625386
490,0.612931,0.815559107
489.5,0.609908,0.811536737
489,0.606941,0.80758888
488.5,0.603996,0.803670296
488,0.601081,0.79979163
487.5,0.598219,0.795983485
487,0.595434,0.792277795
486.5,0.592663,0.788590734
486,0.589943,0.784971532
485.5,0.587255,0.781394909
485,0.584629,0.777900783
484.5,0.582038,0.774453228
484,0.579513,0.771093491
483.5,0.577023,0.767780325
483,0.574584,0.764535019
482.5,0.572175,0.761329631
482,0.56984,0.758222706
481.5,0.567546,0.755170335
481,0.565288,0.752165866
480.5,0.563069,0.749213289
480,0.560886,0.746308614
479.5,0.558796,0.743527684
479,0.556708,0.740749414
478.5,0.554669,0.738036344
478,0.552692,0.73540577
477.5,0.550746,0.732816444
477,0.548854,0.73029897
476.5,0.547007,0.727841373
476,0.545198,0.725434337
475.5,0.543428,0.723079195
475,0.541706,0.720787921
474.5,0.540002,0.718520598
474,0.538373,0.716353069
473.5,0.536774,0.714225458
473,0.535214,0.712149739
472.5,0.533693,0.710125914
472,0.532225,0.708172609
471.5,0.530755,0.706216644
471,0.529337,0.704329869
470.5,0.527926,0.702452408
470,0.526583,0.700665427
469.5,0.525285,0.698938323
469,0.524013,0.697245814
468.5,0.522779,0.695603868
468,0.521604,0.694040426
467.5,0.520416,0.692459686
467,0.519289,0.690960113
466.5,0.518187,0.689493804
466,0.51709,0.688034148
465.5,0.516048,0.686647675
465,0.515052,0.685322408
464.5,0.514076,0.684023754
464,0.513141,0.682779653
463.5,0.512187,0.681510271
463,0.511298,0.680327378
462.5,0.51042,0.679159121
462,0.509575,0.678034774
461.5,0.508768,0.676960988
461,0.507984,0.675917807
460.5,0.507236,0.674922526
460,0.506521,0.673971155
459.5,0.505806,0.673019785
459,0.505124,0.672112323
458.5,0.504476,0.671250101
458,0.503821,0.670378566
457.5,0.503212,0.669568237
457,0.502597,0.668749925
456.5,0.502023,0.667986167
456,0.501456,0.667231723
455.5,0.500918,0.666515867
455,0.500376,0.665794687
454.5,0.499875,0.665128063
454,0.499388,0.664480066
453.5,0.498918,0.663854689
453,0.498463,0.663249271
452.5,0.498017,0.662655829
452,0.497575,0.662067708
451.5,0.497193,0.661559423
451,0.496784,0.661015213
450.5,0.496418,0.660528217
450,0.496075,0.660071825
449.5,0.495746,0.659634061
449,0.495413,0.659190975
448.5,0.4951,0.658774501
448,0.494787,0.658358027
447.5,0.494504,0.65798147
447,0.49423,0.657616889
446.5,0.493983,0.657288233
446,0.493733,0.656955586
445.5,0.493497,0.656641567
445,0.493261,0.656327548
444.5,0.493081,0.656088042
444,0.492903,0.655851198
443.5,0.492729,0.655619675
443,0.492557,0.655390814
442.5,0.492427,0.655217837
442,0.492278,0.65501958
441.5,0.492172,0.654878537
441,0.492072,0.654745478
440.5,0.49196,0.654596452
440,0.491863,0.654467385
439.5,0.491804,0.654388881
439,0.491763,0.654334326
438.5,0.491707,0.654259813
438,0.491671,0.654211912
437.5,0.491623,0.654148044
437,0.491599,0.65411611
436.5,0.49156,0.654064217
436,0.491571,0.654078853
435.5,0.491587,0.654100143
435,0.491609,0.654129416
434.5,0.491626,0.654152036
434,0.491662,0.654199937
433.5,0.491692,0.654239855
433,0.491745,0.654310376
432.5,0.491789,0.654368922
432,0.491862,0.654466055
431.5,0.491943,0.654573832
431,0.492042,0.654705561
430.5,0.492138,0.654833297
430,0.492223,0.654946397
429.5,0.492321,0.655076795
429,0.492454,0.655253763
428.5,0.492543,0.655372186
428,0.49267,0.65554117
427.5,0.492806,0.65572213
427,0.492972,0.655943008
426.5,0.493112,0.656129291
426,0.493309,0.656391417
425.5,0.493469,0.656604311
425,0.493657,0.656854462
424.5,0.493845,0.657104612
424,0.49407,0.657403995
423.5,0.494251,0.657644831
423,0.494472,0.657938891
422.5,0.494695,0.658235613
422,0.49491,0.658521689
421.5,0.495161,0.658855667
421,0.495413,0.659190975
420.5,0.495673,0.659536928
420,0.495954,0.659910824
419.5,0.496257,0.660313992
419,0.49656,0.660717161
418.5,0.496867,0.661125651
418,0.497171,0.66153015
417.5,0.497494,0.661959931
417,0.497842,0.662422976
416.5,0.498188,0.662883359
416,0.498539,0.663350396
415.5,0.498885,0.66381078
415,0.499208,0.66424056
414.5,0.499566,0.664716911
414,0.49993,0.665201245
413.5,0.500268,0.665650984
413,0.500646,0.666153946
412.5,0.501057,0.666700818
412,0.501444,0.667215756
411.5,0.501833,0.667733355
411,0.502229,0.668260268
410.5,0.502642,0.668809802
410,0.503176,0.669520336
409.5,0.503615,0.670104465
409,0.504017,0.670639361
408.5,0.504429,0.671187564
408,0.504875,0.671781006
407.5,0.505338,0.672397069
407,0.505806,0.673019785
406.5,0.506263,0.673627864
406,0.506724,0.674241265
405.5,0.507244,0.674933171
405,0.507758,0.675617094
404.5,0.508267,0.676294363
404,0.508759,0.676949013
403.5,0.509269,0.677627613
403,0.509803,0.678338148
402.5,0.510288,0.678983483
402,0.51083,0.679704663
401.5,0.511355,0.680403222
401,0.511892,0.681117748
400.5,0.512453,0.681864208
400,0.512987,0.682574742
399.5,0.513568,0.683347815
399,0.514107,0.684065002
398.5,0.514677,0.684823438
398,0.515256,0.685593848
397.5,0.515881,0.686425466
397,0.516417,0.687138662
396.5,0.517032,0.687956974
396,0.517671,0.68880722
395.5,0.518313,0.689661458
395,0.518952,0.690511705
394.5,0.519595,0.691367273
394,0.520204,0.692177602
393.5,0.520824,0.693002567
393,0.521506,0.693910028
392.5,0.522165,0.694786886
392,0.52285,0.69569834
391.5,0.523525,0.696596487
391,0.524211,0.697509271
390.5,0.524874,0.698391451
390,0.525523,0.699255003
389.5,0.526114,0.700041381
389,0.526736,0.700869008
388.5,0.527394,0.701744535
388,0.528095,0.702677278
387.5,0.52878,0.703588731
387,0.529475,0.70451349
386.5,0.530183,0.705455547
386,0.530864,0.706361678
385.5,0.531579,0.707313049
385,0.532286,0.708253775
384.5,0.532964,0.709155914
384,0.533705,0.710141881
383.5,0.534437,0.711115872
383,0.535202,0.712133772
382.5,0.535908,0.713073168
382,0.536648,0.714057803
381.5,0.537338,0.71497591
381,0.538125,0.716023083
380.5,0.538875,0.717021025
380,0.539605,0.717992354
379.5,0.540378,0.7190209
379,0.541136,0.720029486
378.5,0.541909,0.721058031
378,0.54272,0.722137138
377.5,0.543459,0.723120444
377,0.544214,0.724125038
376.5,0.545002,0.725173542
376,0.545732,0.726144872
375.5,0.54647,0.727126846
375,0.547225,0.728131441
374.5,0.547989,0.729148011
374,0.548683,0.730071439
373.5,0.549433,0.731069381
373,0.550177,0.732059339
372.5,0.550925,0.733054619
372,0.551637,0.734001999
371.5,0.552385,0.734997279
371,0.553148,0.736012518
370.5,0.553872,0.736975864
370,0.554131,0.737320487
369.5,0.554803,0.738214643
369,0.555547,0.739204601
368.5,0.556324,0.740238468
368,0.557074,0.74123641
367.5,0.557801,0.742203748
367,0.55856,0.743213665
366.5,0.559312,0.744214267
366,0.560033,0.745173622
365.5,0.560724,0.746093059
365,0.561459,0.747071041
364.5,0.562173,0.748021082
364,0.562903,0.748992412
363.5,0.563643,0.749977047
363,0.564342,0.750907129
362.5,0.565031,0.751823905
362,0.565767,0.752803218
361.5,0.566395,0.753638828
361,0.567027,0.75447976
360.5,0.567636,0.755290088
360,0.568298,0.756170938
359.5,0.568894,0.756963969
359,0.569519,0.757795587
358.5,0.570158,0.758645833
358,0.570787,0.759482774
357.5,0.571375,0.76026516
357,0.571992,0.761086133
356.5,0.572543,0.761819287
356,0.573131,0.762601674
355.5,0.573671,0.763320192
355,0.574296,0.76415181
354.5,0.574893,0.764946171
354,0.575492,0.765743194
353.5,0.576056,0.766493646
353,0.576577,0.767186883
352.5,0.577128,0.767920037
352,0.577626,0.76858267
351.5,0.57816,0.769293205
351,0.578708,0.770022367
350.5,0.57923,0.770716935
350,0.579787,0.771458072
349.5,0.580344,0.77219921
349,0.580893,0.772929704
348.5,0.581412,0.773620279
348,0.581975,0.774369401
347.5,0.582593,0.775191705
347,0.583164,0.775951471
346.5,0.583738,0.776715229
346,0.584334,0.77750826
345.5,0.584896,0.778256051
345,0.58549,0.77904642
344.5,0.586148,0.779921948
344,0.586763,0.78074026
343.5,0.587342,0.781510671
343,0.587927,0.782289065
342.5,0.588523,0.783082096
342,0.589087,0.783832548
341.5,0.589785,0.784761299
341,0.590414,0.785598239
340.5,0.59115,0.786577553
340,0.591849,0.787507634
339.5,0.592525,0.788407112
339,0.593228,0.789342516
338.5,0.593883,0.790214052
338,0.594638,0.791218646
337.5,0.595385,0.792212596
337,0.5962,0.793297026
336.5,0.596943,0.794285653
336,0.597725,0.795326174
335.5,0.598553,0.796427901
335,0.59932,0.797448463
334.5,0.600125,0.798519587
334,0.60101,0.799697158
333.5,0.601867,0.800837473
333,0.602712,0.80196182
332.5,0.60361,0.803156689
332,0.604601,0.804475302
331.5,0.605535,0.805718072
331,0.606534,0.80704733
330.5,0.607548,0.808396547
330,0.608619,0.809821608
329.5,0.609673,0.811224049
329,0.610763,0.81267439
328.5,0.611808,0.814064856
328,0.612864,0.815469957
327.5,0.613964,0.816933605
327,0.615031,0.818353343
326.5,0.61618,0.81988219
326,0.617321,0.821400391
325.5,0.618454,0.822907949
325,0.619618,0.824456754
324.5,0.620822,0.826058783
324,0.622106,0.827767259
323.5,0.623332,0.829398561
323,0.624606,0.831093731
322.5,0.625908,0.832826157
322,0.627239,0.834597171
321.5,0.628603,0.836412094
321,0.6299,0.838137868
320.5,0.631256,0.839942146
320,0.632649,0.841795656
319.5,0.634025,0.843626546
319,0.63545,0.845522635
318.5,0.636862,0.847401427
318,0.63831,0.849328119
317.5,0.639742,0.851233522
317,0.641334,0.85335182
316.5,0.642906,0.855443505
316,0.644357,0.85737419
315.5,0.645968,0.859517768
315,0.647496,0.861550908
314.5,0.649139,0.863737065
314,0.650704,0.865819436
313.5,0.652372,0.868038859
313,0.654015,0.870225016
312.5,0.655713,0.872484356
312,0.657422,0.874758332
311.5,0.659153,0.877061581
311,0.66081,0.879266367
310.5,0.662524,0.881546996
310,0.664268,0.883867543
309.5,0.666077,0.886274578
309,0.66788,0.888673629
308.5,0.669697,0.891091309
308,0.671483,0.893467741
307.5,0.673338,0.895935983
307,0.675152,0.898349671
306.5,0.677031,0.900849847
306,0.678895,0.903330065
305.5,0.680783,0.905842216
305,0.682698,0.908390294
304.5,0.684647,0.910983611
304,0.68655,0.913515722
303.5,0.688514,0.916128998
303,0.690497,0.918767555
302.5,0.692568,0.921523205
302,0.694606,0.924234945
301.5,0.696674,0.926986602
301,0.698696,0.929677053
300.5,0.70076,0.932423388
300,0.702894,0.935262864
299.5,0.704995,0.938058431
299,0.707084,0.940838031
298.5,0.709162,0.943602995
298,0.711328,0.94648505
297.5,0.713475,0.949341824
297,0.715687,0.952285087
296.5,0.717934,0.95527492
296,0.720185,0.958270075
295.5,0.722467,0.961306479
295,0.724837,0.964459974
294.5,0.727117,0.967493716
294,0.729425,0.970564715
293.5,0.731749,0.973657003
293,0.73409,0.976771912
292.5,0.736454,0.979917424
292,0.738891,0.983160068
291.5,0.741331,0.986406705
291,0.743848,0.989755797
290.5,0.74639,0.993138154
290,0.748956,0.996552444
289.5,0.751552,1.000006653
289,0.754162,1.00347949
288.5,0.75682,1.007016195
288,0.759527,1.010618098
287.5,0.762244,1.014233308
287,0.765005,1.017907064
286.5,0.767694,1.021485017
286,0.770435,1.025132161
285.5,0.773233,1.028855148
285,0.776092,1.032659301
284.5,0.778918,1.036419545
284,0.781795,1.040247649
283.5,0.784678,1.044083737
283,0.7877,1.048104776
282.5,0.790708,1.052107187
282,0.793751,1.056156169
281.5,0.796775,1.060179869
281,0.799829,1.064243487
280.5,0.802872,1.068292469
280,0.805954,1.072393343
279.5,0.809047,1.076508854
279,0.8122,1.080704201
278.5,0.815315,1.084848985
278,0.818482,1.089062959
277.5,0.821669,1.093303546
277,0.824866,1.097557438
276.5,0.828078,1.101831289
276,0.831248,1.106049256
275.5,0.834479,1.110348388
275,0.837703,1.114638206
274.5,0.840913,1.118909396
274,0.844074,1.123115387
273.5,0.847253,1.127345329
273,0.850466,1.131620511
272.5,0.853629,1.135829163
272,0.856752,1.139984592
271.5,0.859887,1.144155988
271,0.862946,1.148226259
270.5,0.866044,1.152348423
270,0.869164,1.15649986
269.5,0.872222,1.1605688
269,0.875226,1.164565889
268.5,0.878265,1.168609548
268,0.881229,1.172553413
267.5,0.884198,1.176503931
267,0.887024,1.180264175
266.5,0.889869,1.1840497
266,0.892619,1.187708819
265.5,0.895331,1.191317376
265,0.898037,1.194917949
264.5,0.900689,1.198446671
264,0.903312,1.201936805
263.5,0.905875,1.205347104
263,0.908379,1.208678898
262.5,0.910904,1.212038635
262,0.91331,1.215240032
261.5,0.915627,1.218323006
261,0.917869,1.221306186
260.5,0.920077,1.224244126
260,0.922294,1.227194041
259.5,0.924355,1.229936385
259,0.926428,1.232694695
258.5,0.928456,1.235393129
258,0.930441,1.238034348
257.5,0.932334,1.240553152
257,0.934198,1.24303337
256.5,0.936004,1.245436413
256,0.937857,1.247901994
255.5,0.939583,1.25019859
255,0.941322,1.252512484
254.5,0.943009,1.254757188
254,0.944618,1.256898105
253.5,0.946213,1.259020394
253,0.947728,1.261036236
252.5,0.949278,1.263098649
252,0.950838,1.265174367
251.5,0.952254,1.267058481
251,0.953728,1.269019769
250.5,0.955105,1.270851989
250,0.956445,1.272634978
249.5,0.957787,1.274420628
249,0.959093,1.276158377
248.5,0.96037,1.277857539
248,0.961646,1.27955537
247.5,0.962828,1.281128126
247,0.963997,1.282683585
246.5,0.965242,1.284340168
246,0.966421,1.285908932
245.5,0.967611,1.287492332
245,0.968833,1.289118312
244.5,0.96998,1.290644497
244,0.971068,1.292092178
243.5,0.972237,1.293647636
243,0.97335,1.295128581
242.5,0.97443,1.296565617
242,0.975558,1.298066521
241.5,0.976695,1.299579401
241,0.977795,1.301043049
240.5,0.978936,1.30256125
240,0.979994,1.303969013
239.5,0.981152,1.305509835
239,0.982234,1.306949532
238.5,0.983357,1.308443783
238,0.984429,1.309870174
237.5,0.985492,1.31128459
237,0.98665,1.312825412
236.5,0.987683,1.31419991
236,0.988713,1.315570417
235.5,0.989804,1.317022089
235,0.990856,1.318421868
234.5,0.991993,1.319934748
234,0.993183,1.321518149
233.5,0.994342,1.323060301
233,0.995483,1.324578503
232.5,0.996665,1.326151259
232,0.997813,1.327678775
231.5,0.998976,1.329226249
231,1.00015,1.330788361
230.5,1.0013,1.332318538
230,1.00248,1.333888632
229.5,1.00359,1.335365586
229,1.00469,1.336829234
228.5,1.00581,1.338319493
228,1.00694,1.339823058
227.5,1.00809,1.341353235
227,1.00913,1.342737048
226.5,1.01018,1.344134166
226,1.01123,1.345531284
225.5,1.01236,1.347034849
225,1.01344,1.348471885
224.5,1.01441,1.349762556
224,1.01548,1.351186286
223.5,1.01638,1.352383816
223,1.01735,1.353674487
222.5,1.01822,1.3548321
222,1.01915,1.356069547
221.5,1.02004,1.357253771
221,1.02079,1.358251713
220.5,1.02153,1.359236348
220,1.02225,1.360194372
219.5,1.02295,1.361125785
219,1.0236,1.361990667
218.5,1.02416,1.362735797
218,1.02465,1.363387785
217.5,1.02505,1.363920021
217,1.02538,1.364359115
216.5,1.02566,1.36473168
216,1.02595,1.365117551
215.5,1.02613,1.365357057
215,1.02624,1.365503422
214.5,1.02622,1.36547681
214,1.02617,1.36541028
213.5,1.02619,1.365436892
213,1.02611,1.365330445
212.5,1.02601,1.365197386
212,1.02586,1.364997798
211.5,1.02559,1.364638539
211,1.02549,1.36450548
210.5,1.02536,1.364332503
210,1.02517,1.364079692
209.5,1.02493,1.36376035
209,1.02475,1.363520844
208.5,1.02454,1.363241421
208,1.02422,1.362815632
207.5,1.024,1.362522903
207,1.02361,1.362003973
206.5,1.02318,1.36143182
206,1.0227,1.360793137
205.5,1.02222,1.360154455
205,1.02171,1.359475854
204.5,1.02112,1.358690807
204,1.02057,1.357958983
203.5,1.01999,1.357187242
203,1.01939,1.356388889
202.5,1.0188,1.355603841
202,1.01808,1.354645817
201.5,1.0174,1.353741017
201,1.01686,1.353022499
200.5,1.01629,1.352264063
200,1.01564,1.351399181
,,
##### Extended Information,,
[Comments],,
Sample name,1_3-26,
Comment,1_3-26,
User,,
Division,,
Company,Uni PD,
,,
[Detailed Information],,
Creation date,26/03/2024 15:44,
,,
Data array type,Linear data array,
Horizontal axis,Wavelength [nm],
Vertical axis,Abs,
Start,1200 nm,
End,200 nm,
Data interval,0.5 nm,
Data points,2001,
,,
[Measurement Information],,
Instrument name,Jasco V-770,
Model name,V-770,
Serial No.,A035961801,
,,
Accessory,USE-753,
Accessory S/N,A035961801,
  Cell,,
  Ref. beam,,
,,
Measurement date,26/03/2024 15:43,
,,
Parameter file,D:\DATI UTENTI\RUNPENG M\RM 200-1200nm 1nm 1000nm-min.uvsp,
Photometric mode,Abs,
Measurement range,1200 - 200 nm,
Data interval,0.5 nm,
UV/Vis bandwidth,1.0 nm,
NIR bandwidth,8.0 nm,
UV/Vis response,0.96 sec,
NIR response,0.96 sec,
Scan speed,1000 nm/min,
Change source at,340 nm,
Change grating at,850 nm,
Light source,D2/WI,
Filter exchange,Step,
Correction,Baseline,
